[FILEINFO]
Version	2.0
Type	Profile
Date	2018/12/17 19:11:49

[DITEST]
Serial Number	18ST1087	
Type	STA-R	

[MEASUREMENT]
Date	2018/12/17 15:24:49	
Measurement duration (s)	17.592	
File Name	2018_12_17_15_24_49_038	
Sensor name	Training 1	
Sensor ID	23	
Sensor Length (m)	120.00	
Sample Count	236	
Spatial Resolution (m)	1.0	
Sampling Interval (ns)	5	
Averaging	2000	
Pulse Rate (kHz)	25	
Frequency start (GHz)	10.7	
Frequency stop (GHz)	11.6000000000001	
Frequency step set (GHz)	0.005	
Frequency step actual (MHz)	5.0	
Nb of frequency peak	2	
Sensor configuration	Single-end	
Frequency scan mode	Manual	
Probe attenuation (%)	0	
Pulse power factor (%)	0	

[MAINTENANCEINFO]
Internal		

[DATADESCRIPTION]
Nb of measurements	1
Distance unit	m
Data type	Brillouin Frequency
Data unit	GHz
Measurement Mode	Absolute

[DATA]	
0.306	10.81909	
0.817	10.82477	
1.327	10.79956	
1.838	10.81096	
2.348	10.82175	
2.859	10.83018	
3.369	10.83223	
3.880	10.81641	
4.390	10.83932	
4.901	10.81155	
5.411	10.82580	
5.922	10.80700	
6.432	10.80546	
6.942	10.80302	
7.453	10.82666	
7.963	10.83505	
8.474	10.85396	
8.984	10.82143	
9.495	10.79950	
10.005	10.82826	
10.516	10.79031	
11.026	10.87719	
11.537	10.83010	
12.047	10.79695	
12.558	10.83670	
13.068	10.83413	
13.579	10.81500	
14.089	10.80645	
14.600	10.82686	
15.110	10.80876	
15.621	10.82788	
16.131	10.81963	
16.642	10.88152	
17.152	10.84562	
17.662	10.87165	
18.173	10.81637	
18.683	10.83342	
19.194	10.80732	
19.704	10.80888	
20.215	10.82886	
20.725	10.81438	
21.236	10.86025	
21.746	10.85238	
22.257	10.78537	
22.767	10.80224	
23.278	10.82386	
23.788	10.81834	
24.299	10.81554	
24.809	10.83575	
25.320	10.85899	
25.830	10.84517	
26.341	10.83777	
26.851	10.83286	
27.362	10.81504	
27.872	10.81768	
28.382	10.87070	
28.893	10.81255	
29.403	10.77973	
29.914	10.79054	
30.424	10.83743	
30.935	10.83895	
31.445	10.83487	
31.956	10.86426	
32.466	10.85198	
32.977	10.85828	
33.487	10.84868	
33.998	10.81723	
34.508	10.77687	
35.019	10.83046	
35.529	10.81445	
36.040	10.79571	
36.550	10.77230	
37.061	10.82705	
37.571	10.94377	
38.082	10.78462	
38.592	10.80356	
39.102	10.83403	
39.613	10.80550	
40.123	10.85940	
40.634	10.88223	
41.144	10.83142	
41.655	10.85877	
42.165	10.80573	
42.676	10.80352	
43.186	10.82126	
43.697	10.90713	
44.207	10.81038	
44.718	10.80905	
45.228	10.80178	
45.739	10.81725	
46.249	10.82987	
46.760	10.82681	
47.270	10.80992	
47.781	10.84384	
48.291	10.81509	
48.802	10.86777	
49.312	10.82367	
49.822	10.80598	
50.333	10.78589	
50.843	10.81215	
51.354	10.80388	
51.864	10.87333	
52.375	10.85966	
52.885	10.80962	
53.396	10.83847	
53.906	10.80659	
54.417	10.82276	
54.927	10.83799	
55.438	10.80259	
55.948	10.85877	
56.459	10.82703	
56.969	10.82707	
57.480	10.80260	
57.990	10.82706	
58.501	10.78780	
59.011	10.79823	
59.522	10.81494	
60.032	10.85359	
60.542	10.84008	
61.053	10.82665	
61.563	10.84710	
62.074	10.77508	
62.584	10.81515	
63.095	10.83026	
63.605	10.82572	
64.116	10.81007	
64.626	10.83280	
65.137	10.80683	
65.647	10.85910	
66.158	10.83323	
66.668	10.82396	
67.179	10.79684	
67.689	10.83966	
68.200	10.83454	
68.710	10.82347	
69.221	10.80227	
69.731	10.79180	
70.242	10.80799	
70.752	10.84695	
71.262	10.89606	
71.773	10.77201	
72.283	10.80437	
72.794	10.87596	
73.304	10.82046	
73.815	10.83136	
74.325	10.77926	
74.836	10.82172	
75.346	10.85625	
75.857	10.83682	
76.367	10.86659	
76.878	10.80186	
77.388	10.80346	
77.899	10.78329	
78.409	10.80798	
78.920	10.84732	
79.430	10.86306	
79.941	10.80102	
80.451	10.83070	
80.962	10.82763	
81.472	10.81044	
81.982	10.82007	
82.493	10.85720	
83.003	10.82777	
83.514	10.81142	
84.024	10.80164	
84.535	10.80175	
85.045	10.77701	
85.556	10.77731	
86.066	10.79640	
86.577	10.78585	
87.087	10.79228	
87.598	10.78165	
88.108	10.77281	
88.619	10.78714	
89.129	10.79298	
89.640	10.76978	
90.150	10.81745	
90.661	10.81793	
91.171	10.81671	
91.682	10.79197	
92.192	10.83315	
92.702	10.78961	
93.213	10.79856	
93.723	10.82723	
94.234	10.86390	
94.744	10.82623	
95.255	10.95188	
95.765	10.84805	
96.276	10.86197	
96.786	10.79580	
97.297	10.81092	
97.807	10.95317	
98.318	10.86986	
98.828	10.78921	
99.339	10.80503	
99.849	10.94122	
100.360	10.82373	
100.870	10.81980	
101.381	10.94475	
101.891	10.81613	
102.402	10.80403	
102.912	10.87281	
103.422	10.85040	
103.933	10.97107	
104.443	10.78027	
104.954	10.92265	
105.464	10.78721	
105.975	11.03954	
106.485	11.28428	
106.996	10.70000	
107.506	11.21908	
108.017	10.84004	
108.527	10.98948	
109.038	11.18159	
109.548	10.79243	
110.059	11.40842	
110.569	11.48474	
111.080	11.16829	
111.590	11.03825	
112.101	10.84191	
112.611	11.42339	
113.122	11.28118	
113.632	10.81816	
114.142	10.70000	
114.653	10.70000	
115.163	10.80567	
115.674	11.41965	
116.184	11.32178	
116.695	10.70000	
117.205	10.70000	
117.716	11.44426	
118.226	11.23694	
118.737	11.47008	
119.247	11.19952	
119.758	10.85438	
